time (s)	det(V)
434839.568628	-0.176481	
434839.570627	-0.166176	
434839.574627	-0.155216	
434839.576628	-0.135963	
434839.578627	-0.126694	
434839.580627	-0.117470	
434839.582628	-0.108322	
434839.586625	-0.101199	
434839.588629	-0.087746	
434839.592628	-0.078908	
434839.594628	-0.063388	
434839.596628	-0.057646	
434839.598627	-0.050083	
434839.600627	-0.040119	
434839.604625	-0.032346	
434839.606627	-0.019507	
434839.608628	-0.010016	
434839.612627	-0.000264	
434839.614628	0.017486	
434839.616627	0.026499	
434839.618627	0.037821	
434839.620627	0.048368	
434839.622627	0.057877	
434839.626635	0.066925	
434839.630634	0.092003	
434839.632635	0.117427	
434839.634636	0.130295	
434839.636634	0.142991	
434839.638635	0.156464	
434839.642633	0.170735	
434839.644636	0.198911	
434839.646635	0.212684	
434839.650635	0.226557	
434839.652636	0.257462	
434839.654637	0.272508	
434839.656639	0.286322	
434839.658638	0.300090	
434839.660638	0.314043	
434839.662640	0.327082	
434839.666647	0.339854	
434839.668649	0.364788	
434839.670648	0.376086	
434839.672649	0.386909	
434839.674647	0.395918	
434839.676649	0.404649	
434839.678649	0.410664	
434839.680648	0.414638	
434839.682649	0.419299	
434839.686647	0.424559	
434839.688648	0.432398	
434839.690648	0.435425	
434839.692648	0.437238	
434839.694649	0.438435	
434839.696648	0.438112	
434839.698648	0.437581	
434839.702646	0.435728	
434839.704649	0.430723	
434839.706647	0.427370	
434839.708650	0.423581	
434839.710648	0.420190	
434839.712649	0.416229	
434839.714648	0.412421	
434839.716648	0.409030	
434839.718648	0.404582	
434839.722646	0.398733	
434839.726647	0.385911	
434839.728648	0.374177	
434839.730648	0.367535	
434839.732648	0.361707	
434839.734649	0.355318	
434839.736649	0.349398	
434839.740649	0.344018	
434839.742651	0.332070	
434839.744653	0.326830	
434839.748651	0.321545	
434839.750653	0.312671	
434839.752653	0.307752	
434839.754652	0.303070	
434839.756653	0.299029	
434839.758651	0.293923	
434839.762656	0.288960	
434839.766657	0.280988	
434839.768659	0.273536	
434839.770659	0.269030	
434839.772658	0.265199	
434839.774659	0.260803	
434839.778656	0.256603	
434839.780659	0.246519	
434839.797526	0.204573	
434839.799528	0.212345	
434839.801528	0.215067	
434839.803528	0.209017	
434839.807526	0.193113	
434839.811525	0.162969	
434839.813528	0.167073	
434839.815532	0.171141	
434839.817535	0.165308	
434839.819537	0.147136	
434839.821537	0.129587	
434839.825536	0.120930	
434839.827537	0.126816	
434839.829537	0.125267	
434839.833538	0.115915	
434839.835537	0.093291	
434839.837537	0.088190	
434839.839538	0.092103	
434839.841538	0.094447	
434839.843538	0.088966	
434839.847536	0.076796	
434839.849538	0.067824	
434839.851537	0.071174	
434839.853537	0.070527	
434839.855537	0.063347	
434839.857538	0.055730	
434839.859537	0.051987	
434839.861537	0.052436	
434839.863538	0.053645	
434839.867536	0.050275	
434839.871537	0.040922	
434839.873537	0.043842	
434839.875540	0.041456	
434839.877538	0.037162	
434839.879537	0.034937	
434839.883535	0.037145	
434839.885536	0.033500	
434839.887537	0.031931	
434839.891537	0.031447	
434839.893539	0.032380	
434839.895538	0.030925	
434839.897538	0.029245	
434839.899538	0.028616	
434839.901542	0.028332	
434839.905536	0.027140	
434839.909537	0.024153	
434839.911538	0.025739	
434839.913538	0.024335	
434839.915536	0.024345	
434839.917537	0.023228	
434839.921537	0.023777	
434839.923537	0.022102	
434839.925537	0.019138	
434839.929538	0.018270	
434839.931537	0.019258	
434839.933537	0.018467	
434839.935537	0.017836	
434839.937536	0.017552	
434839.939537	0.016435	
434839.943543	0.014123	
434839.947542	0.014132	
434839.949544	0.012802	
434839.951544	0.012767	
434839.953544	0.011950	
434839.955545	0.010973	
434839.959542	0.010954	
434839.961543	0.007448	
434839.963543	0.007580	
434839.967543	0.007284	
434839.969544	0.006595	
434839.971545	0.005542	
434839.973544	0.004815	
434839.975545	0.005069	
434839.977544	0.004266	
434839.981547	0.003593	
434839.985550	0.002677	
434839.987550	0.002160	
434839.989549	0.002470	
434839.991551	0.002246	
434839.993548	0.001514	
434839.997548	0.001426	
434839.999549	0.000310	
434840.001550	-0.000023	
434840.005549	-0.000943	
434840.007549	0.000490	
434840.009550	0.000547	
434840.011549	0.000575	
434840.013549	0.000642	
434840.015550	-0.000191	
434840.017550	-0.000007	
434840.021558	-0.000328	
434840.023558	-0.000129	
434840.025557	0.000107	
434840.027558	0.001118	
434840.029557	0.000922	
434840.031558	0.000505	
434840.033557	0.002126	
434840.035558	0.000743	
434840.037557	0.000373	
434840.041562	0.000389	
434840.043564	0.001314	
434840.045563	0.002246	
434840.047562	0.001264	
434840.049563	0.001868	
434840.051564	0.001947	
434840.053562	0.001807	
434840.055563	0.002663	
434840.057563	0.001881	
434840.061566	0.001584	
434840.063565	0.001582	
434840.065565	0.001657	
434840.067565	0.002458	
434840.069565	0.001779	
434840.071565	0.002115	
434840.073564	0.002746	
434840.077562	0.001598	
434840.081562	0.001156	
434840.083566	0.001673	
434840.085569	0.000879	
434840.087569	0.000846	
434840.089568	0.001782	
434840.091569	0.000870	
434840.095566	0.000328	
434840.097569	-0.000016	
434840.099568	-0.000589	
434840.103568	-0.000572	
434840.105569	-0.000173	
434840.107568	-0.000125	
434840.109568	-0.000893	
434840.111569	-0.000073	
434840.113569	-0.001153	
434840.115572	-0.002198	
434840.119577	-0.002305	
434840.121577	-0.002171	
434840.123577	-0.001070	
434840.125577	-0.001244	
434840.127577	-0.001296	
434840.129577	-0.001983	
434840.131576	-0.002915	
434840.133577	-0.002493	
434840.135577	-0.003168	
434840.137579	-0.003466	
434840.141583	-0.002894	
434840.143585	-0.002048	
434840.145586	-0.002080	
434840.147584	-0.001873	
434840.149585	-0.002111	
434840.151585	-0.002306	
434840.155583	-0.001436	
434840.157584	-0.002720	
434840.159584	-0.003039	
434840.163583	-0.002421	
434840.165584	-0.001668	
434840.167585	-0.001588	
434840.169584	-0.001491	
434840.171585	-0.001936	
434840.173585	-0.001261	
434840.177584	-0.002503	
434840.181585	-0.002380	
434840.183584	-0.001022	
434840.185586	-0.001460	
434840.187584	-0.001614	
434840.189584	-0.001076	
434840.193582	-0.001339	
434840.195584	-0.001979	
434840.197585	-0.002509	
434840.201585	-0.002540	
434840.203585	-0.002225	
434840.205584	-0.001930	
434840.207583	-0.002493	
434840.209585	-0.002764	
434840.211584	-0.003014	
434840.213584	-0.004379	
434840.217584	-0.004196	
434840.219583	-0.005177	
434840.221585	-0.005234	
434840.223586	-0.005014	
434840.225584	-0.005587	
434840.227585	-0.006856	
434840.229585	-0.007162	
434840.231584	-0.008254	
434840.233585	-0.009137	
434840.237588	-0.009905	
434840.239588	-0.010442	
434840.241589	-0.011320	
434840.243589	-0.011393	
434840.245588	-0.012022	
434840.247589	-0.013362	
434840.249589	-0.013170	
434840.253588	-0.014900	
434840.255588	-0.016476	
434840.257589	-0.018462	
434840.261588	-0.017898	
434840.263589	-0.019062	
434840.265588	-0.019844	
434840.267588	-0.020306	
434840.269587	-0.021565	
434840.271588	-0.022479	
434840.273589	-0.023661	
434840.275595	-0.025132	
434840.279599	-0.025387	
434840.281599	-0.026483	
434840.283600	-0.027213	
434840.285601	-0.028734	
434840.287600	-0.029505	
434840.289601	-0.030196	
434840.291601	-0.031106	
434840.295598	-0.033398	
434840.299598	-0.035890	
434840.301600	-0.036729	
434840.303602	-0.037843	
434840.305600	-0.038457	
434840.307601	-0.040234	
434840.309602	-0.041479	
434840.311600	-0.042793	
434840.313600	-0.045180	
434840.317600	-0.046694	
434840.321601	-0.050222	
434840.323600	-0.052979	
434840.325602	-0.055347	
434840.327601	-0.057849	
434840.329601	-0.060074	
434840.333598	-0.062568	
434840.335600	-0.068932	
434840.337601	-0.071845	
434840.341601	-0.074710	
434840.343601	-0.080953	
434840.345600	-0.084668	
434840.347601	-0.089291	
434840.349601	-0.093254	
434840.351600	-0.096950	
434840.353601	-0.102580	
434840.359600	-0.112505	
434840.361601	-0.122408	
434840.363601	-0.127966	
434840.365601	-0.133932	
434840.367601	-0.139855	
434840.371598	-0.146259	
434840.373600	-0.159352	
434840.375601	-0.167028	
434840.379600	-0.173637	
434840.381602	-0.187881	
434840.383604	-0.195222	
434840.385606	-0.202791	
434840.387604	-0.210533	
434840.389604	-0.218044	
434840.391604	-0.227234	
434840.395604	-0.235166	
434840.397604	-0.251744	
434840.399606	-0.259083	
434840.401605	-0.267628	
434840.403605	-0.276276	
434840.405605	-0.284489	
434840.407606	-0.292568	
434840.411602	-0.302080	
434840.413604	-0.319280	
434840.415603	-0.327459	
434840.417606	-0.335460	
434840.419612	-0.343274	
434840.421615	-0.351486	
434840.423615	-0.358966	
434840.425615	-0.367583	
434840.427613	-0.375101	
434840.431613	-0.383538	
434840.433614	-0.398720	
434840.437615	-0.405951	
434840.439616	-0.415711	
434840.441616	-0.421725	
434840.443616	-0.428640	
434840.445615	-0.435958	
434840.449612	-0.443293	
434840.451614	-0.457960	
434840.453615	-0.464876	
434840.457614	-0.471905	
434840.459615	-0.485138	
434840.461615	-0.491756	
434840.463614	-0.498507	
434840.465616	-0.505054	
434840.467615	-0.511432	
434840.471614	-0.518606	
434840.473616	-0.529766	
434840.475615	-0.534608	
434840.477614	-0.539025	
434840.479617	-0.542938	
434840.481620	-0.546950	
434840.483624	-0.550202	
434840.485623	-0.553061	
434840.487623	-0.555406	
434840.491622	-0.556623	
434840.495623	-0.557464	
434840.497623	-0.554353	
434840.499622	-0.551544	
434840.501622	-0.548278	
434840.503622	-0.544251	
434840.507621	-0.539642	
434840.509622	-0.528317	
434840.511623	-0.520937	
434840.515622	-0.513171	
434840.517623	-0.494513	
434840.521620	-0.475151	
434840.523622	-0.463748	
434840.525622	-0.452127	
434840.529626	-0.440494	
434840.531626	-0.417819	
434840.533627	-0.407737	
434840.535631	-0.394421	
434840.537633	-0.381212	
434840.539632	-0.366639	
434840.541633	-0.353097	
434840.543633	-0.337990	
434840.545633	-0.323757	
434840.549638	-0.310076	
434840.553638	-0.280447	
434840.555637	-0.251966	
434840.557637	-0.238184	
434840.559638	-0.225428	
434840.561639	-0.212046	
434840.565637	-0.200046	
434840.567640	-0.176256	
434840.569638	-0.164996	
434840.573638	-0.153789	
434840.575639	-0.131876	
434840.577639	-0.121250	
434840.579639	-0.111508	
434840.581639	-0.101561	
434840.583638	-0.092112	
434840.585638	-0.084126	
434840.589638	-0.075477	
434840.591639	-0.058033	
434840.593639	-0.048944	
434840.595638	-0.040092	
434840.597639	-0.032292	
434840.599639	-0.023811	
434840.601638	-0.015131	
434840.603639	-0.006819	
434840.605639	0.001532	
434840.607637	0.009752	
434840.611639	0.019488	
434840.613639	0.038885	
434840.615638	0.048533	
434840.617640	0.057547	
434840.619639	0.066875	
434840.621639	0.078673	
434840.625637	0.091167	
434840.627639	0.112117	
434840.629639	0.124164	
434840.633638	0.137398	
434840.635638	0.164142	
434840.637639	0.177009	
434840.639638	0.191998	
434840.641637	0.206875	
434840.643638	0.220722	
434840.647638	0.233984	
434840.649640	0.265483	
434840.651642	0.282261	
434840.653641	0.298287	
434840.655639	0.313567	
434840.657639	0.329036	
434840.659639	0.345360	
434840.661639	0.362303	
434840.663639	0.378078	
434840.667643	0.392672	
434840.671643	0.417054	
434840.673643	0.446951	
434840.675644	0.460900	
434840.677644	0.473967	
434840.679644	0.486812	
434840.683647	0.499241	
434840.685650	0.523887	
434840.687649	0.533832	
434840.691649	0.543781	
434840.693650	0.562053	
434840.695649	0.570067	
434840.697649	0.576857	
434840.699650	0.582985	
434840.701650	0.587845	
434840.705650	0.590705	
434840.707649	0.596610	
434840.709649	0.597983	
434840.711653	0.599390	
434840.713652	0.599228	
434840.715652	0.598025	
434840.717652	0.596681	
434840.719652	0.594562	
434840.721652	0.590785	
434840.725655	0.587088	
434840.729656	0.578011	
434840.731656	0.567873	
434840.733656	0.562601	
434840.735656	0.556045	
434840.737655	0.549574	
434840.741654	0.543446	
434840.743656	0.528486	
434840.745655	0.521210	
434840.749655	0.513132	
434840.751655	0.498748	
434840.753657	0.490120	
434840.755656	0.481903	
434840.757655	0.474048	
434840.759656	0.464651	
434840.761655	0.455296	
434840.765655	0.446597	
434840.780504	0.369991	
434840.782507	0.370227	
434840.784507	0.367714	
434840.786507	0.358555	
434840.790505	0.341910	
434840.792508	0.303008	
434840.794507	0.301115	
434840.798505	0.300985	
434840.800505	0.283610	
434840.802508	0.259850	
434840.804506	0.239175	
434840.806505	0.230706	
434840.808506	0.226726	
434840.810507	0.225061	
434840.814512	0.221581	
434840.816512	0.187133	
434840.818513	0.176997	
434840.820513	0.174602	
434840.822513	0.173349	
434840.824512	0.164819	
434840.826513	0.150319	
434840.830511	0.137731	
434840.832512	0.131949	
434840.834513	0.128276	
434840.838512	0.119542	
434840.840513	0.103205	
434840.842513	0.100124	
434840.844512	0.098444	
434840.846514	0.092410	
434840.848513	0.083803	
434840.850515	0.078224	
434840.854513	0.076811	
434840.856515	0.070664	
434840.858516	0.064900	
434840.860515	0.061833	
434840.862513	0.060787	
434840.864515	0.058102	
434840.866515	0.053515	
434840.870513	0.050037	
434840.874512	0.047006	
434840.876515	0.042586	
434840.878515	0.040463	
434840.880514	0.038802	
434840.882514	0.036174	
434840.884514	0.035207	
434840.888513	0.032356	
434840.890515	0.030625	
434840.892515	0.027453	
434840.896515	0.026576	
434840.898516	0.023375	
434840.900515	0.023670	
434840.902514	0.021464	
434840.904515	0.019323	
434840.906515	0.019257	
434840.910514	0.016519	
434840.914514	0.013849	
434840.916515	0.014013	
434840.918517	0.012833	
434840.920517	0.012307	
434840.922517	0.011066	
434840.926515	0.010223	
434840.928517	0.007104	
434840.930517	0.007080	
434840.934515	0.005628	
434840.936517	0.007116	
434840.938516	0.006522	
434840.940517	0.004632	
434840.942516	0.004636	
434840.944517	0.003855	
434840.946516	0.001627	
434840.950516	0.001657	
434840.952517	0.001089	
434840.954517	0.000963	
434840.956517	0.000982	
434840.958517	-0.001045	
434840.960517	-0.000221	
434840.962517	-0.000393	
434840.964517	-0.001523	
434840.966517	-0.001430	
434840.970520	-0.002013	
434840.972521	-0.002167	
434840.974521	-0.001829	
434840.976520	-0.002725	
434840.978520	-0.002430	
434840.980523	-0.003272	
434840.982520	-0.003046	
434840.984521	-0.004071	
434840.986520	-0.004132	
434840.990519	-0.004225	
434840.992520	-0.004039	
434840.994521	-0.002998	
434840.996522	-0.002268	
434840.998521	-0.004485	
434841.000521	-0.003584	
434841.002521	-0.004026	
434841.006518	-0.004623	
434841.010520	-0.004212	
434841.012521	-0.003173	
434841.014520	-0.003875	
434841.016521	-0.004830	
434841.018528	-0.003482	
434841.020527	-0.003218	
434841.024523	-0.003215	
434841.026526	-0.004104	
434841.028526	-0.004479	
434841.032527	-0.003568	
434841.034526	-0.002586	
434841.036525	-0.002805	
434841.038525	-0.002642	
434841.040526	-0.002828	
434841.042526	-0.002861	
434841.046525	-0.003743	
434841.050525	-0.003240	
434841.052526	-0.002448	
434841.056524	-0.002835	
434841.058525	-0.002139	
434841.062524	-0.002741	
434841.064526	-0.003812	
434841.066526	-0.002771	
434841.070527	-0.002768	
434841.072527	-0.002756	
434841.074525	-0.002618	
434841.076527	-0.002220	
434841.078526	-0.001269	
434841.080525	-0.002494	
434841.084526	-0.003444	
434841.086524	-0.004117	
434841.088525	-0.003511	
434841.090529	-0.002308	
434841.092531	-0.002669	
434841.094529	-0.002920	
434841.096529	-0.002712	
434841.098530	-0.002178	
434841.100529	-0.002123	
434841.104530	-0.002932	
434841.108529	-0.002318	
434841.110530	-0.001298	
434841.112529	-0.001923	
434841.114530	-0.002215	
434841.116530	-0.001865	
434841.120528	-0.002210	
434841.122530	-0.001711	
434841.124529	-0.001579	
434841.128530	-0.001643	
434841.130530	-0.001307	
434841.132530	-0.000263	
434841.134529	-0.001340	
434841.136529	-0.000680	
434841.138530	-0.000628	
434841.140529	-0.001293	
434841.144533	-0.000983	
434841.146531	-0.001061	
434841.148532	-0.000371	
434841.150532	0.000133	
434841.152531	0.000281	
434841.154532	-0.000169	
434841.156532	0.000970	
434841.158531	-0.000194	
434841.160531	-0.000908	
434841.162531	-0.000059	
434841.166532	0.000257	
434841.168532	0.000991	
434841.170533	0.000294	
434841.172531	0.000897	
434841.174531	0.001033	
434841.176533	0.001259	
434841.180530	0.001050	
434841.182530	0.000587	
434841.184532	0.000776	
434841.188531	0.000641	
434841.190531	0.002392	
434841.192531	0.001153	
434841.194531	0.001546	
434841.196532	0.001636	
434841.198531	0.001865	
434841.202532	0.001591	
434841.206531	0.000738	
434841.208531	0.001789	
434841.210532	0.002216	
434841.212531	0.002260	
434841.214531	0.002301	
434841.218530	0.002144	
434841.220534	0.001424	
434841.222539	0.001380	
434841.226537	0.001580	
434841.228538	0.002575	
434841.230537	0.002651	
434841.232538	0.002371	
434841.234539	0.002553	
434841.236537	0.002351	
434841.238541	0.001793	
434841.244537	0.001876	
434841.246537	0.002606	
434841.248537	0.002699	
434841.250537	0.002895	
434841.252537	0.003530	
434841.256535	0.002665	
434841.258537	0.002246	
434841.260537	0.002450	
434841.264537	0.002942	
434841.266538	0.002923	
434841.268538	0.003477	
434841.270537	0.003300	
434841.272538	0.003510	
434841.274537	0.003888	
434841.276537	0.002627	
434841.280538	0.003023	
434841.282538	0.003304	
434841.284538	0.004077	
434841.286538	0.003973	
434841.288538	0.004232	
434841.290538	0.004038	
434841.292537	0.004367	
434841.296535	0.003689	
434841.298538	0.003281	
434841.300538	0.003624	
434841.304539	0.004249	
434841.306538	0.004792	
434841.308538	0.003945	
434841.310538	0.004566	
434841.314535	0.004210	
434841.316541	0.003337	
434841.320538	0.003652	
434841.322540	0.003699	
434841.324546	0.003734	
434841.326546	0.003909	
434841.328547	0.003639	
434841.330545	0.003616	
434841.332546	0.003032	
434841.336543	0.002819	
434841.340543	0.001731	
434841.342545	0.001791	
434841.344546	0.001856	
434841.346545	0.001732	
434841.348545	0.000955	
434841.350545	0.000683	
434841.354544	0.000490	
434841.356547	-0.000984	
434841.358546	-0.001729	
434841.362545	-0.002421	
434841.364546	-0.002456	
434841.366546	-0.002857	
434841.368546	-0.003304	
434841.370545	-0.003790	
434841.372544	-0.004477	
434841.376544	-0.005821	
434841.380545	-0.006955	
434841.382546	-0.007630	
434841.384547	-0.007536	
434841.386546	-0.008605	
434841.388547	-0.009460	
434841.392544	-0.009461	
434841.394545	-0.011432	
434841.396545	-0.012404	
434841.400545	-0.013450	
434841.402547	-0.013772	
434841.404546	-0.014568	
434841.406547	-0.015518	
434841.408546	-0.016500	
434841.410545	-0.018592	
434841.412548	-0.018981	
434841.416545	-0.020164	
434841.418547	-0.021658	
434841.420545	-0.022670	
434841.422547	-0.023464	
434841.424551	-0.024663	
434841.426549	-0.026394	
434841.428551	-0.027404	
434841.430549	-0.029552	
434841.432550	-0.031931	
434841.434550	-0.033195	
434841.438550	-0.035210	
434841.440549	-0.038174	
434841.442550	-0.040436	
434841.444550	-0.042925	
434841.446549	-0.045421	
434841.448549	-0.047969	
434841.452548	-0.050323	
434841.454549	-0.057298	
434841.456550	-0.059914	
434841.460549	-0.063494	
434841.462549	-0.069893	
434841.464550	-0.074250	
434841.466550	-0.078143	
434841.468550	-0.081957	
434841.470549	-0.086782	
434841.474549	-0.092114	
434841.478549	-0.102315	
434841.480549	-0.112328	
434841.482551	-0.118213	
434841.484550	-0.124277	
434841.486550	-0.130545	
434841.490547	-0.137141	
434841.492550	-0.151556	
434841.494549	-0.158211	
434841.498549	-0.165412	
434841.500550	-0.178893	
434841.502549	-0.186430	
434841.504550	-0.194332	
434841.506549	-0.201381	
434841.508549	-0.208994	
434841.512549	-0.217005	
434841.516549	-0.232579	
434841.518549	-0.246602	
434841.520549	-0.254046	
434841.522550	-0.261542	
434841.524549	-0.268596	
434841.528549	-0.275984	
434841.530551	-0.290441	
434841.532551	-0.297949	
434841.536551	-0.304157	
434841.538551	-0.317016	
434841.540551	-0.322844	
434841.542552	-0.329560	
434841.544551	-0.335266	
434841.546552	-0.340982	
434841.550553	-0.347737	
434841.554553	-0.358135	
434841.556554	-0.367563	
434841.558555	-0.372690	
434841.560553	-0.377701	
434841.562553	-0.382576	
434841.566551	-0.387456	
434841.568554	-0.396960	
434841.570553	-0.401510	
